"Time (s)","Magnetic field x (µT)","Magnetic field y (µT)","Magnetic field z (µT)"
8.103934100E-2,-1.514019966E1,-3.652679825E1,-1.958099937E1
9.103934100E-2,-1.499380016E1,-3.677079773E1,-1.966639900E1
1.010393410E-1,-1.467659950E1,-3.710020065E1,-1.998359871E1
1.110393410E-1,-1.437160015E1,-3.711240005E1,-2.020319939E1
1.210393410E-1,-1.407880020E1,-3.723439789E1,-2.030080032E1
1.310393410E-1,-1.382259941E1,-3.716119766E1,-2.036179924E1
1.410393410E-1,-1.359079933E1,-3.706359863E1,-2.059359932E1
1.510393410E-1,-1.333459949E1,-3.694160080E1,-2.081320000E1
1.610393410E-1,-1.278559971E1,-3.691719818E1,-2.121579933E1
1.710393410E-1,-1.226099968E1,-3.685620117E1,-2.167939949E1
1.810393410E-1,-1.173639965E1,-3.675859833E1,-2.200880051E1
1.910393410E-1,-1.126060009E1,-3.668539810E1,-2.243579865E1
2.010393410E-1,-1.076039982E1,-3.658779907E1,-2.293599892E1
2.110393410E-1,-1.016259956E1,-3.642919922E1,-2.338739967E1
2.210393410E-1,-9.528200150E0,-3.636819839E1,-2.381439972E1
2.310393410E-1,-8.942600250E0,-3.631940079E1,-2.408279991E1
2.410393410E-1,-8.393599510E0,-3.625839996E1,-2.439999962E1
2.510393410E-1,-7.856800079E0,-3.620959854E1,-2.460739899E1
2.610393410E-1,-7.295599937E0,-3.608760071E1,-2.496119881E1
2.710393410E-1,-6.648999691E0,-3.602659988E1,-2.522959900E1
2.810393410E-1,-6.099999905E0,-3.590459824E1,-2.541259956E1
2.910393410E-1,-5.624199867E0,-3.592900085E1,-2.564439964E1
3.010393410E-1,-5.221600056E0,-3.595339966E1,-2.566880035E1
3.110393410E-1,-4.782400131E0,-3.603879929E1,-2.583959961E1
3.210393410E-1,-4.343199730E0,-3.607539749E1,-2.588839912E1
3.310393410E-1,-3.903999805E0,-3.607539749E1,-2.591279984E1
3.410393410E-1,-3.550199986E0,-3.619739914E1,-2.582740021E1
3.510393410E-1,-3.281800032E0,-3.629499817E1,-2.563220024E1
3.610393410E-1,-2.964599848E0,-3.641699982E1,-2.548579979E1
3.710393410E-1,-2.720599890E0,-3.656340027E1,-2.529059982E1
3.810393410E-1,-2.427799940E0,-3.664879990E1,-2.511979866E1
3.910393410E-1,-2.256999969E0,-3.677079773E1,-2.493680000E1
4.010393410E-1,-2.134999990E0,-3.680739975E1,-2.469279861E1
4.110393410E-1,-1.927599907E0,-3.684399796E1,-2.455859947E1
4.210393410E-1,-1.756799936E0,-3.696599960E1,-2.438780022E1
4.310393410E-1,-1.585999966E0,-3.703919983E1,-2.416819954E1
4.410393410E-1,-1.415199995E0,-3.713679886E1,-2.398519897E1
4.510393410E-1,-1.268800020E0,-3.718560028E1,-2.385099983E1
4.610393410E-1,-1.146799922E0,-3.724660110E1,-2.374119949E1
4.710393410E-1,-9.271999598E-1,-3.723439789E1,-2.359479904E1
4.810393410E-1,-6.588000059E-1,-3.736859894E1,-2.347279930E1
4.910393410E-1,-4.757999778E-1,-3.749060059E1,-2.330200005E1
5.010393410E-1,-2.561999857E-1,-3.745399857E1,-2.315559959E1
5.110393410E-1,-8.540000021E-2,-3.747840118E1,-2.305799866E1
5.210393410E-1,1.097999960E-1,-3.746619797E1,-2.287500000E1
5.310393410E-1,3.659999967E-1,-3.736859894E1,-2.263099861E1
5.410393410E-1,6.344000101E-1,-3.733200073E1,-2.236260033E1
5.510393410E-1,7.929999828E-1,-3.729539871E1,-2.209420013E1
5.610393410E-1,9.515999556E-1,-3.718560028E1,-2.183799934E1
5.710393410E-1,1.134599924E0,-3.706359863E1,-2.152079964E1
5.810393410E-1,1.256600022E0,-3.702700043E1,-2.114259911E1
5.910393410E-1,1.402999997E0,-3.697819901E1,-2.081320000E1
6.010393410E-1,1.488399982E0,-3.696599960E1,-2.054479980E1
6.110393410E-1,1.524999976E0,-3.700259781E1,-2.034959984E1
6.210393410E-1,1.585999966E0,-3.702700043E1,-2.020319939E1
6.310393410E-1,1.634799957E0,-3.710020065E1,-2.006900024E1
6.410393410E-1,1.634799957E0,-3.716119766E1,-1.995919991E1
6.510393410E-1,1.622599959E0,-3.739299774E1,-2.008119965E1
6.610393410E-1,1.622599959E0,-3.736859894E1,-2.017879868E1
6.710393410E-1,1.610399961E0,-3.733200073E1,-2.032519913E1
6.810393410E-1,1.585999966E0,-3.734420013E1,-2.049600029E1
6.910393410E-1,1.561599970E0,-3.736859894E1,-2.076440048E1
7.010393410E-1,1.537199974E0,-3.725880051E1,-2.095960045E1
7.110393410E-1,1.585999966E0,-3.712459946E1,-2.124020004E1
7.210393410E-1,1.646999955E0,-3.701480103E1,-2.147200012E1
7.310393410E-1,1.683599949E0,-3.678300095E1,-2.155739975E1
7.410393410E-1,1.817799926E0,-3.669759750E1,-2.176479912E1
7.510393410E-1,1.878799915E0,-3.658779907E1,-2.191119957E1
7.610393410E-1,1.988600016E0,-3.651459885E1,-2.204539871E1
7.710393410E-1,2.098399878E0,-3.639260101E1,-2.204539871E1
7.810393410E-1,2.122799873E0,-3.640480042E1,-2.209420013E1
7.910393410E-1,2.159399986E0,-3.641699982E1,-2.200880051E1
8.010393410E-1,2.159399986E0,-3.645359802E1,-2.197220039E1
8.110393410E-1,2.183799982E0,-3.646579742E1,-2.186240005E1
8.210393410E-1,2.061800003E0,-3.650239944E1,-2.185019875E1
8.310393410E-1,2.073999882E0,-3.651459885E1,-2.185019875E1
8.410393410E-1,2.049599886E0,-3.647800064E1,-2.181359863E1
8.510393410E-1,2.013000011E0,-3.645359802E1,-2.181359863E1
8.610393410E-1,1.988600016E0,-3.644139862E1,-2.185019875E1
8.710393410E-1,1.976400018E0,-3.635599899E1,-2.197220039E1
8.810393410E-1,1.951999903E0,-3.627059937E1,-2.211859894E1
8.910393410E-1,1.866599917E0,-3.617300034E1,-2.226499939E1
9.010393410E-1,1.927599907E0,-3.611199951E1,-2.238699913E1
9.110393410E-1,1.903199911E0,-3.606319809E1,-2.238699913E1
9.210393410E-1,1.854399920E0,-3.603879929E1,-2.244799995E1
9.310393410E-1,1.805599928E0,-3.603879929E1,-2.247239876E1
9.410393410E-1,1.768999934E0,-3.598999786E1,-2.247239876E1
9.510393410E-1,1.671399951E0,-3.606319809E1,-2.260659981E1
9.610393410E-1,1.610399961E0,-3.608760071E1,-2.260659981E1
9.710393410E-1,1.598199964E0,-3.618519974E1,-2.272859955E1
9.810393410E-1,1.488399982E0,-3.616080093E1,-2.274079895E1
9.910393410E-1,1.476199985E0,-3.620959854E1,-2.286279869E1
1.001039341E0,1.451799989E0,-3.629499817E1,-2.302140045E1
1.011039341E0,1.488399982E0,-3.630719757E1,-2.313119888E1
1.021039341E0,1.512799978E0,-3.636819839E1,-2.327759933E1
1.031039341E0,1.573799968E0,-3.630719757E1,-2.325319862E1
1.041039341E0,1.610399961E0,-3.635599899E1,-2.332639885E1
1.051039341E0,1.610399961E0,-3.636819839E1,-2.335079956E1
1.061039341E0,1.695799947E0,-3.646579742E1,-2.339959908E1
1.071039341E0,1.671399951E0,-3.663660049E1,-2.339959908E1
1.081039341E0,1.671399951E0,-3.666099930E1,-2.342399979E1
1.091039341E0,1.622599959E0,-3.684399796E1,-2.357040024E1
1.101039341E0,1.610399961E0,-3.696599960E1,-2.372900009E1
1.111039341E0,1.537199974E0,-3.708799744E1,-2.385099983E1
1.121039341E0,1.524999976E0,-3.705139923E1,-2.399740028E1
1.131039341E0,1.561599970E0,-3.692939758E1,-2.414379883E1
1.141039341E0,1.476199985E0,-3.683179855E1,-2.419260025E1
1.151039341E0,1.415199995E0,-3.662440109E1,-2.437559891E1
1.161039341E0,1.342000008E0,-3.651459885E1,-2.439999962E1
1.171039341E0,1.305400014E0,-3.627059937E1,-2.430239868E1
1.181039341E0,1.244400024E0,-3.611199951E1,-2.416819954E1
1.191039341E0,1.220000029E0,-3.603879929E1,-2.416819954E1
1.201039341E0,1.110199928E0,-3.597779846E1,-2.409499931E1
1.211039341E0,9.759999514E-1,-3.594120026E1,-2.396080017E1
1.221039341E0,9.027999640E-1,-3.588019943E1,-2.392420006E1
1.231039341E0,8.295999765E-1,-3.583139801E1,-2.385099983E1
1.241039341E0,7.441999912E-1,-3.578260040E1,-2.385099983E1
1.251039341E0,5.856000185E-1,-3.585580063E1,-2.389979935E1
1.261039341E0,4.879999757E-1,-3.589239883E1,-2.397299957E1
1.271039341E0,4.635999799E-1,-3.574599838E1,-2.389979935E1
1.281039341E0,5.123999715E-1,-3.572159958E1,-2.388759995E1
1.291039341E0,5.123999715E-1,-3.572159958E1,-2.383880043E1
1.301039341E0,5.245999694E-1,-3.570940018E1,-2.378999901E1
1.311039341E0,6.222000122E-1,-3.573379898E1,-2.375339890E1
1.321039341E0,7.441999912E-1,-3.574599838E1,-2.370459938E1
1.331039341E0,9.393999577E-1,-3.575819778E1,-2.359479904E1
1.341039341E0,1.085799932E0,-3.581919861E1,-2.346059990E1
1.351039341E0,1.183400035E0,-3.601440048E1,-2.342399979E1
1.361039341E0,1.244400024E0,-3.629499817E1,-2.339959908E1
1.371039341E0,1.366400003E0,-3.647800064E1,-2.342399979E1
1.381039341E0,1.512799978E0,-3.659999847E1,-2.337520027E1
1.391039341E0,1.610399961E0,-3.663660049E1,-2.325319862E1
1.401039341E0,1.732399940E0,-3.666099930E1,-2.318000031E1
1.411039341E0,1.781199932E0,-3.667319870E1,-2.319219971E1
1.421039341E0,1.866599917E0,-3.661219788E1,-2.322879982E1
1.431039341E0,1.927599907E0,-3.651459885E1,-2.321660042E1
1.441039341E0,1.988600016E0,-3.634379959E1,-2.314340019E1
1.451039341E0,2.073999882E0,-3.624620056E1,-2.304579926E1
1.461039341E0,2.098399878E0,-3.620959854E1,-2.305799866E1
1.471039341E0,2.110599995E0,-3.612419891E1,-2.315559959E1
1.481039341E0,2.122799873E0,-3.614859772E1,-2.316779900E1
1.491039341E0,2.147199869E0,-3.613639832E1,-2.310680008E1
1.501039341E0,2.171599865E0,-3.612419891E1,-2.313119888E1
1.511039341E0,2.171599865E0,-3.614859772E1,-2.299699974E1
1.521039341E0,2.208199978E0,-3.618519974E1,-2.302140045E1
1.531039341E0,2.208199978E0,-3.620959854E1,-2.302140045E1
1.541039341E0,2.232599974E0,-3.627059937E1,-2.308239937E1
1.551039341E0,2.293599844E0,-3.645359802E1,-2.300919914E1
1.561039341E0,2.305799961E0,-3.653899765E1,-2.299699974E1
1.571039341E0,2.366800070E0,-3.664879990E1,-2.292379951E1
1.581039341E0,2.378999949E0,-3.688059998E1,-2.292379951E1
1.591039341E0,2.440000057E0,-3.702700043E1,-2.298480034E1
1.816473561E0,-7.795799732E0,-3.928400040E1,-1.357859993E1
1.826473561E0,-7.746999741E0,-3.932059860E1,-1.362739944E1
1.836473561E0,-7.600599766E0,-3.935720062E1,-1.360299969E1
1.846473561E0,-7.576200008E0,-3.923519897E1,-1.357859993E1
1.856473561E0,-7.466399670E0,-3.925959778E1,-1.371280003E1
1.866473561E0,-7.368799686E0,-3.925959778E1,-1.365180016E1
1.876473561E0,-7.283400059E0,-3.919860077E1,-1.366399956E1
1.886473561E0,-7.185800076E0,-3.918639755E1,-1.372499943E1
1.896473561E0,-7.027199745E0,-3.923519897E1,-1.379819965E1
1.906473561E0,-6.868599892E0,-3.925959778E1,-1.389579964E1
1.916473561E0,-6.770999908E0,-3.928400040E1,-1.396899986E1
1.926473561E0,-6.624599934E0,-3.936940002E1,-1.413980007E1
1.936473561E0,-6.539199829E0,-3.940599823E1,-1.417640018E1
1.946473561E0,-6.417200089E0,-3.940599823E1,-1.431059933E1
1.956473561E0,-6.331799984E0,-3.946699905E1,-1.449359989E1
1.966473561E0,-6.221999645E0,-3.944260025E1,-1.453020000E1
1.976473561E0,-6.136600018E0,-3.933279800E1,-1.466440010E1
1.986473561E0,-6.002399921E0,-3.932059860E1,-1.476200008E1
1.996473561E0,-5.843800068E0,-3.923519897E1,-1.492059994E1
2.006473561E0,-5.721799850E0,-3.907659912E1,-1.499380016E1
2.016473561E0,-5.599800110E0,-3.893019867E1,-1.510359955E1
2.026473561E0,-5.502200127E0,-3.878379822E1,-1.521339989E1
2.036473561E0,-5.416800022E0,-3.868619919E1,-1.525000000E1
2.046473561E0,-5.392399788E0,-3.858860016E1,-1.537199974E1
2.056473561E0,-5.331399918E0,-3.856419754E1,-1.549399948E1
2.066473561E0,-5.306999683E0,-3.843000031E1,-1.560379982E1
2.076473561E0,-5.306999683E0,-3.833239746E1,-1.570139980E1
2.086473561E0,-5.258199692E0,-3.833239746E1,-1.583559990E1
2.096473561E0,-5.209399700E0,-3.830799866E1,-1.596980000E1
2.106473561E0,-5.245999813E0,-3.833239746E1,-1.607959938E1
2.116473561E0,-5.209399700E0,-3.829579926E1,-1.625040054E1
2.126473561E0,-5.172800064E0,-3.827140045E1,-1.638459969E1
2.136473561E0,-5.099599838E0,-3.822259903E1,-1.644560051E1
2.146473561E0,-5.050799847E0,-3.817379761E1,-1.654319954E1
2.156473561E0,-4.977600098E0,-3.819820023E1,-1.664080048E1
2.166473561E0,-4.953199863E0,-3.814939880E1,-1.664080048E1
2.176473561E0,-4.965399742E0,-3.821039963E1,-1.664080048E1
2.186473561E0,-4.904399872E0,-3.821039963E1,-1.673839951E1
2.196473561E0,-4.880000114E0,-3.819820023E1,-1.679940033E1
2.206473561E0,-4.843400002E0,-3.814939880E1,-1.684819984E1
2.216473561E0,-4.867799759E0,-3.823479843E1,-1.697019958E1
2.226473561E0,-4.831200123E0,-3.825920105E1,-1.701899910E1
2.236473561E0,-4.831200123E0,-3.822259903E1,-1.705559921E1
2.246473561E0,-4.794600010E0,-3.825920105E1,-1.712879944E1
2.256473561E0,-4.721399784E0,-3.819820023E1,-1.722640038E1
2.266473561E0,-4.684800148E0,-3.817379761E1,-1.732399940E1
2.276473561E0,-4.635999680E0,-3.828359985E1,-1.737279892E1
2.286473561E0,-4.587199688E0,-3.830799866E1,-1.738500023E1
2.296473561E0,-4.538399696E0,-3.822259903E1,-1.739719963E1
2.306473561E0,-4.489599705E0,-3.818600082E1,-1.742160034E1
2.316473561E0,-4.465199947E0,-3.828359985E1,-1.748259926E1
2.326473561E0,-4.391999722E0,-3.834460068E1,-1.758020020E1
2.336473561E0,-4.379799843E0,-3.833239746E1,-1.765340042E1
2.346473561E0,-4.294399738E0,-3.830799866E1,-1.764119911E1
2.356473561E0,-4.221199989E0,-3.811280060E1,-1.762899971E1
2.366473561E0,-4.074800014E0,-3.796640015E1,-1.779979897E1
2.376473561E0,-3.952800035E0,-3.790539932E1,-1.786079979E1
2.386473561E0,-3.867399931E0,-3.781999969E1,-1.789739990E1
2.396473561E0,-3.769799948E0,-3.760039902E1,-1.804380035E1
2.406473561E0,-3.696599960E0,-3.740520096E1,-1.823900032E1
2.416473561E0,-3.598999977E0,-3.728319931E1,-1.847080040E1
2.426473561E0,-3.525799990E0,-3.724660110E1,-1.864159966E1
2.436473561E0,-3.489199877E0,-3.724660110E1,-1.887339973E1
2.446473561E0,-3.501399994E0,-3.730759811E1,-1.904419899E1
2.456473561E0,-3.525799990E0,-3.720999908E1,-1.916619873E1
2.466473561E0,-3.476999998E0,-3.712459946E1,-1.942239952E1
2.476473561E0,-3.440399885E0,-3.711240005E1,-1.954439926E1
2.486473561E0,-3.391599894E0,-3.707579803E1,-1.961759949E1
2.496473561E0,-3.379400015E0,-3.701480103E1,-1.975180054E1
2.506473561E0,-3.367199898E0,-3.691719818E1,-1.989819908E1
2.516473561E0,-3.355000019E0,-3.681959915E1,-1.999580002E1
2.526473561E0,-3.355000019E0,-3.672200012E1,-1.997139931E1
2.536473561E0,-3.318399906E0,-3.672200012E1,-2.014220047E1
2.546473561E0,-3.330600023E0,-3.675859833E1,-2.014220047E1
2.556473561E0,-3.220799923E0,-3.674639893E1,-2.014220047E1
2.566473561E0,-3.208600044E0,-3.677079773E1,-2.016659927E1
2.576473561E0,-3.123199940E0,-3.684399796E1,-2.011779976E1
2.586473561E0,-3.001199961E0,-3.683179855E1,-2.011779976E1
2.596473561E0,-2.854799986E0,-3.681959915E1,-2.016659927E1
2.606473561E0,-2.720599890E0,-3.684399796E1,-2.032519913E1
2.616473561E0,-2.549799919E0,-3.681959915E1,-2.034959984E1
2.626473561E0,-2.366800070E0,-3.677079773E1,-2.042280006E1
2.636473561E0,-2.305799961E0,-3.684399796E1,-2.053260040E1
2.646473561E0,-2.183799982E0,-3.684399796E1,-2.056920052E1
2.656473561E0,-2.098399878E0,-3.681959915E1,-2.066679955E1
2.666473561E0,-2.049599886E0,-3.681959915E1,-2.069120026E1
2.676473561E0,-1.976400018E0,-3.694160080E1,-2.063019943E1
2.686473561E0,-1.878799915E0,-3.695380020E1,-2.061800003E1
2.696473561E0,-1.829999924E0,-3.701480103E1,-2.067899895E1
2.706473561E0,-1.768999934E0,-3.707579803E1,-2.064239883E1
2.716473561E0,-1.646999955E0,-3.697819901E1,-2.066679955E1
2.726473561E0,-1.537199974E0,-3.691719818E1,-2.071559906E1
2.736473561E0,-1.390799999E0,-3.691719818E1,-2.081320000E1
2.746473561E0,-1.232200027E0,-3.690499878E1,-2.086199951E1
2.756473561E0,-1.134599924E0,-3.677079773E1,-2.097179985E1
2.766473561E0,-1.036999941E0,-3.680739975E1,-2.106939888E1
2.776473561E0,-9.027999640E-1,-3.670980072E1,-2.104500008E1
2.786473561E0,-8.051999807E-1,-3.668539810E1,-2.109379959E1
2.796473561E0,-6.832000017E-1,-3.662440109E1,-2.120359993E1
2.806473561E0,-5.611999631E-1,-3.659999847E1,-2.130119896E1
2.816473561E0,-4.513999820E-1,-3.646579742E1,-2.131340027E1
2.826473561E0,-3.416000009E-1,-3.639260101E1,-2.148419952E1
2.836473561E0,-2.073999941E-1,-3.633160019E1,-2.165499878E1
2.846473561E0,-2.439999953E-2,-3.619739914E1,-2.175259972E1
2.856473561E0,1.708000004E-1,-3.612419891E1,-2.204539871E1
2.866473561E0,3.050000072E-1,-3.600220108E1,-2.233819962E1
2.876473561E0,4.391999841E-1,-3.588019943E1,-2.254559898E1
2.886473561E0,5.856000185E-1,-3.573379898E1,-2.275300026E1
2.896473561E0,7.441999912E-1,-3.566059875E1,-2.292379951E1
2.906473561E0,8.539999723E-1,-3.562400055E1,-2.305799866E1
2.916473561E0,9.637999535E-1,-3.557519913E1,-2.316779900E1
2.926473561E0,1.024799943E0,-3.551419830E1,-2.328979874E1
2.936473561E0,1.073599935E0,-3.542879868E1,-2.326539993E1
2.946473561E0,1.110199928E0,-3.538000107E1,-2.327759933E1
2.956473561E0,1.146799922E0,-3.541659927E1,-2.326539993E1
2.966473561E0,1.146799922E0,-3.542879868E1,-2.319219971E1
2.976473561E0,1.122399926E0,-3.540439987E1,-2.310680008E1
2.986473561E0,1.122399926E0,-3.540439987E1,-2.302140045E1
2.996473561E0,1.024799943E0,-3.540439987E1,-2.292379951E1
3.006473561E0,9.882000089E-1,-3.540439987E1,-2.283839989E1
3.016473561E0,8.905999660E-1,-3.547760010E1,-2.280179977E1
3.026473561E0,8.295999765E-1,-3.551419830E1,-2.270419884E1
3.036473561E0,7.807999849E-1,-3.546540070E1,-2.264319992E1
3.046473561E0,7.441999912E-1,-3.550199890E1,-2.265539932E1
3.056473561E0,6.832000017E-1,-3.556299973E1,-2.263099861E1
3.066473561E0,6.710000038E-1,-3.555080032E1,-2.253339958E1
3.076473561E0,7.197999954E-1,-3.550199890E1,-2.248460007E1
3.086473561E0,7.075999975E-1,-3.551419830E1,-2.246019936E1
3.096473561E0,7.563999891E-1,-3.552639771E1,-2.238699913E1
3.106473561E0,8.173999786E-1,-3.551419830E1,-2.233819962E1
3.116473561E0,8.661999702E-1,-3.558739853E1,-2.224059868E1
3.126473561E0,9.027999640E-1,-3.558739853E1,-2.213080025E1
3.136473561E0,9.393999577E-1,-3.559959793E1,-2.202099991E1
3.146473561E0,1.000399947E0,-3.566059875E1,-2.208199883E1
3.156473561E0,1.036999941E0,-3.572159958E1,-2.197220039E1
3.166473561E0,1.073599935E0,-3.572159958E1,-2.188679886E1
3.176473561E0,1.122399926E0,-3.579479980E1,-2.177700043E1
3.186473561E0,1.146799922E0,-3.585580063E1,-2.170380020E1
3.196473561E0,1.134599924E0,-3.588019943E1,-2.167939949E1
3.206473561E0,1.146799922E0,-3.592900085E1,-2.159399986E1
3.216473561E0,1.183400035E0,-3.596559906E1,-2.154520035E1
3.226473561E0,1.183400035E0,-3.598999786E1,-2.133779907E1
3.236473561E0,1.183400035E0,-3.602659988E1,-2.125239944E1
3.246473561E0,1.183400035E0,-3.609980011E1,-2.113039970E1
3.256473561E0,1.171200037E0,-3.609980011E1,-2.108160019E1
3.266473561E0,1.134599924E0,-3.611199951E1,-2.104500008E1
3.276473561E0,1.146799922E0,-3.614859772E1,-2.089859962E1
3.286473561E0,1.134599924E0,-3.616080093E1,-2.082539940E1
3.296473561E0,1.122399926E0,-3.613639832E1,-2.077659988E1
3.306473561E0,1.158999920E0,-3.609980011E1,-2.076440048E1
3.316473561E0,1.195600033E0,-3.607539749E1,-2.082539940E1
3.326473561E0,1.220000029E0,-3.603879929E1,-2.083759880E1
3.336473561E0,1.207800031E0,-3.605099869E1,-2.081320000E1
3.346473561E0,1.268800020E0,-3.605099869E1,-2.078879929E1
3.356473561E0,1.281000018E0,-3.598999786E1,-2.083759880E1
3.366473561E0,1.317600012E0,-3.595339966E1,-2.092300034E1
3.376473561E0,1.305400014E0,-3.598999786E1,-2.100839996E1
3.386473561E0,1.317600012E0,-3.603879929E1,-2.104500008E1
3.396473561E0,1.293200016E0,-3.605099869E1,-2.104500008E1
3.406473561E0,1.317600012E0,-3.607539749E1,-2.111820030E1
3.416473561E0,1.342000008E0,-3.603879929E1,-2.114259911E1
3.426473561E0,1.317600012E0,-3.602659988E1,-2.114259911E1
3.436473561E0,1.305400014E0,-3.609980011E1,-2.114259911E1
3.446473561E0,1.293200016E0,-3.613639832E1,-2.116699982E1
3.456473561E0,1.293200016E0,-3.614859772E1,-2.116699982E1
3.466473561E0,1.268800020E0,-3.617300034E1,-2.126459885E1
3.476473561E0,1.281000018E0,-3.623400116E1,-2.130119896E1
3.486473561E0,1.305400014E0,-3.623400116E1,-2.128899956E1
3.496473561E0,1.293200016E0,-3.628279877E1,-2.138660049E1
3.506473561E0,1.329800010E0,-3.635599899E1,-2.147200012E1
3.516473561E0,1.342000008E0,-3.638039780E1,-2.156959915E1
3.526473561E0,1.390799999E0,-3.638039780E1,-2.161839867E1
3.536473561E0,1.451799989E0,-3.644139862E1,-2.166720009E1
3.546473561E0,1.427399993E0,-3.640480042E1,-2.167939949E1
3.556473561E0,1.427399993E0,-3.631940079E1,-2.171599960E1
3.566473561E0,1.439599991E0,-3.642919922E1,-2.174040031E1
3.576473561E0,1.451799989E0,-3.641699982E1,-2.177700043E1
3.586473561E0,1.427399993E0,-3.640480042E1,-2.177700043E1
3.596473561E0,1.439599991E0,-3.644139862E1,-2.172819901E1
3.606473561E0,1.390799999E0,-3.649020004E1,-2.175259972E1
3.616473561E0,1.354200006E0,-3.634379959E1,-2.175259972E1
3.626473561E0,1.366400003E0,-3.630719757E1,-2.174040031E1
3.636473561E0,1.390799999E0,-3.635599899E1,-2.167939949E1
3.646473561E0,1.366400003E0,-3.625839996E1,-2.165499878E1
3.656473561E0,1.366400003E0,-3.622179794E1,-2.161839867E1
3.666473561E0,1.342000008E0,-3.620959854E1,-2.158180046E1
